,flux,lam
0,1.7371048073855789e-16,400.1
1,1.7390285609689194e-16,400.15
2,1.7409554289135907e-16,400.2
3,1.742887300631984e-16,400.25
4,1.7448223647423952e-16,400.3
5,1.7467626427750184e-16,400.35
6,1.7487060393342792e-16,400.4
7,1.7506544355022022e-16,400.45
8,1.752606028528669e-16,400.5
9,1.7545627165244084e-16,400.55
10,1.756521521832858e-16,400.6
11,1.7584834293165455e-16,400.65
12,1.7604493389124229e-16,400.7
13,1.7624225442435752e-16,400.75
14,1.7643978855045202e-16,400.8
15,1.7662818598596535e-16,400.85
16,1.767348153186561e-16,400.9
17,1.7667786473693447e-16,400.95
18,1.7659525249080057e-16,401.0
19,1.7651271258986118e-16,401.05
20,1.7643022817822015e-16,401.1
21,1.763478371868178e-16,401.15
22,1.7626549399706364e-16,401.2
23,1.7618322309729417e-16,401.25
24,1.7610100777215653e-16,401.3
25,1.7601889224268338e-16,401.35
26,1.7593688092641562e-16,401.4
27,1.758550471322862e-16,401.45
28,1.757732301206598e-16,401.5
29,1.7569139984937171e-16,401.55
30,1.756096451465696e-16,401.6
31,1.7552804673274187e-16,401.65
32,1.7544647284177272e-16,401.7
33,1.753649080658682e-16,401.75
34,1.7528342253997016e-16,401.8
35,1.7520209834614967e-16,401.85
36,1.7512084397612374e-16,401.9
37,1.750396839922106e-16,401.95
38,1.7495858337740484e-16,402.0
39,1.7487757448910766e-16,402.05
40,1.747966022918409e-16,402.1
41,1.7471568643295508e-16,402.15
42,1.746348799003688e-16,402.2
43,1.7455427100360927e-16,402.25
44,1.7447367073232076e-16,402.3
45,1.7439303652042769e-16,402.35
46,1.7431248651102664e-16,402.4
47,1.7423211299461245e-16,402.45
48,1.741517559343805e-16,402.5
49,1.7407138723799739e-16,402.55
50,1.739911064357075e-16,402.6
51,1.7391100721967888e-16,402.65
52,1.7383097013230615e-16,402.7
53,1.7375100492075535e-16,402.75
54,1.7367109592397599e-16,402.8
55,1.735932317763865e-16,402.85
56,1.7353223851132594e-16,402.9
57,1.7350385361541772e-16,402.95
58,1.7348061996159835e-16,403.0
59,1.7345747758258678e-16,403.05
60,1.7343437204543842e-16,403.1
61,1.7341131479773488e-16,403.15
62,1.7338829897287552e-16,403.2
63,1.733653522062343e-16,403.25
64,1.7334243884845384e-16,403.3
65,1.7331957374496598e-16,403.35
66,1.7329675012961142e-16,403.4
67,1.7327399416231824e-16,403.45
68,1.7325126010416785e-16,403.5
69,1.7322855352400604e-16,403.55
70,1.7320589658909828e-16,403.6
71,1.7318333065781087e-16,403.65
72,1.731608016587919e-16,403.7
73,1.7313831949135077e-16,403.75
74,1.731158673700864e-16,403.8
75,1.7309346341522618e-16,403.85
76,1.7307110111173632e-16,403.9
77,1.730488089953788e-16,403.95
78,1.730265620085989e-16,404.0
79,1.730043824589361e-16,404.05
80,1.729822248485565e-16,404.1
81,1.7296009470110135e-16,404.15
82,1.72938014485209e-16,404.2
83,1.7291602227178388e-16,404.25
84,1.728940438103793e-16,404.3
85,1.7287207081880075e-16,404.35
86,1.7285014441871925e-16,404.4
87,1.728283100305978e-16,404.45
88,1.728065243557568e-16,404.5
89,1.7278480594222187e-16,404.55
90,1.7276310949309043e-16,404.6
91,1.7274143911931873e-16,404.65
92,1.727198072301627e-16,404.7
93,1.7269824390950383e-16,404.75
94,1.7267671426142698e-16,404.8
95,1.7265122912635655e-16,404.85
96,1.7259181325758785e-16,404.9
97,1.7246891367711654e-16,404.95
98,1.7233626578676173e-16,405.0
99,1.7220392588329803e-16,405.05
100,1.720716455662114e-16,405.1
101,1.7193940794985187e-16,405.15
102,1.7180734997407173e-16,405.2
103,1.7167563124412544e-16,405.25
104,1.7154405779478143e-16,405.3
105,1.7141265924484645e-16,405.35
106,1.7128128797762117e-16,405.4
107,1.7114993624147332e-16,405.45
108,1.7101874950971392e-16,405.5
109,1.7088788107908686e-16,405.55
110,1.7075716651075376e-16,405.6
111,1.7062666796699026e-16,405.65
112,1.7049636540505562e-16,405.7
113,1.7036636821393956e-16,405.75
114,1.7023641862719024e-16,405.8
115,1.7010647887612644e-16,405.85
116,1.6997662197881246e-16,405.9
117,1.6984693870586772e-16,405.95
118,1.697174569328141e-16,406.0
119,1.6958830177747818e-16,406.05
120,1.6945919751378536e-16,406.1
121,1.6933011302741595e-16,406.15
122,1.6920119477664717e-16,406.2
123,1.6907259233893574e-16,406.25
124,1.689441324222301e-16,406.3
125,1.6881585632396568e-16,406.35
126,1.686876906013256e-16,406.4
127,1.6855968688991724e-16,406.45
128,1.6843179023923484e-16,406.5
129,1.6830405410667542e-16,406.55
130,1.6817641318094957e-16,406.6
131,1.6804891385183503e-16,406.65
132,1.6792153028328453e-16,406.7
133,1.677943401958794e-16,406.75
134,1.6766734440126912e-16,406.8
135,1.675285589700058e-16,406.85
136,1.672886823954068e-16,406.9
137,1.6686591179516171e-16,406.95
138,1.6988267338601871e-16,407.0
139,1.6983311609365048e-16,407.05
140,1.6978356555337088e-16,407.1
141,1.6973402242874729e-16,407.15
142,1.6968448695261031e-16,407.2
143,1.6963496024254712e-16,407.25
144,1.6958544328808786e-16,407.3
145,1.695359351928346e-16,407.35
146,1.6948643767973411e-16,407.4
147,1.6943694987567143e-16,407.45
148,1.69387474458199e-16,407.5
149,1.6933801018167286e-16,407.55
150,1.6928855825681242e-16,407.6
151,1.6923911985941232e-16,407.65
152,1.6918969493126497e-16,407.7
153,1.691402837401256e-16,407.75
154,1.6909088706597688e-16,407.8
155,1.690415054676123e-16,407.85
156,1.6899213920114563e-16,407.9
157,1.6894278967520223e-16,407.95
158,1.6889345595845953e-16,408.0
159,1.6884413956431672e-16,408.05
160,1.6879484115634115e-16,408.1
161,1.68745561176911e-16,408.15
162,1.6869629889260977e-16,408.2
163,1.686470563639887e-16,408.25
164,1.6859783389372751e-16,408.3
165,1.685486304922961e-16,408.35
166,1.6849944853456692e-16,408.4
167,1.6845028779935092e-16,408.45
168,1.6840114847291263e-16,408.5
169,1.683520315331407e-16,408.55
170,1.6830293600214647e-16,408.6
171,1.6825386491836982e-16,408.65
172,1.6820481678005312e-16,408.7
173,1.6815579197136688e-16,408.75
174,1.6810679223854097e-16,408.8
175,1.6805781753500926e-16,408.85
176,1.6800886779092253e-16,408.9
177,1.6795994392596187e-16,408.95
178,1.679110470809974e-16,409.0
179,1.6786217625485734e-16,409.05
180,1.6781333300750706e-16,409.1
181,1.6776451693149286e-16,409.15
182,1.6771572902798654e-16,409.2
183,1.6766696968115867e-16,409.25
184,1.6761823939159514e-16,409.3
185,1.6756953806616369e-16,409.35
186,1.6752086690394207e-16,409.4
187,1.674722258700058e-16,409.45
188,1.674236149643548e-16,409.5
189,1.6737503566546366e-16,409.55
190,1.6732648784527558e-16,409.6
191,1.6727797134080903e-16,409.65
192,1.6722948761889712e-16,409.7
193,1.6718103620223703e-16,409.75
194,1.6713261812692508e-16,409.8
195,1.6708423321833834e-16,409.85
196,1.6703588237287477e-16,409.9
197,1.6698756630066784e-16,409.95
198,1.6693928397726268e-16,410.0
199,1.6689103761455044e-16,410.05
200,1.668428260833025e-16,410.1
201,1.667946504079737e-16,410.15
202,1.6674651096109304e-16,410.2
203,1.6669840811518952e-16,410.25
204,1.6665034262696282e-16,410.3
205,1.6660231333225966e-16,410.35
206,1.6655432271072642e-16,410.4
207,1.6650636998238043e-16,410.45
208,1.6645845567109066e-16,410.5
209,1.6641057977685706e-16,410.55
210,1.663627429283224e-16,410.6
211,1.6631494546309116e-16,410.65
212,1.6626718871993945e-16,410.7
213,1.6621947120875122e-16,410.75
214,1.661717949784361e-16,410.8
215,1.6612415895797314e-16,410.85
216,1.6607656456762926e-16,410.9
217,1.6602901155129077e-16,410.95
218,1.6598150043282657e-16,411.0
219,1.659340313868597e-16,411.05
220,1.6588660500710832e-16,411.1
221,1.6583922128193081e-16,411.15
222,1.6579188032774258e-16,411.2
223,1.657445834949613e-16,411.25
224,1.6569733027135955e-16,411.3
225,1.656501212506555e-16,411.35
226,1.6560295614181086e-16,411.4
227,1.65555836702697e-16,411.45
228,1.6550876187393442e-16,411.5
229,1.6546173243550585e-16,411.55
230,1.65414748119656e-16,411.6
231,1.6536781050963327e-16,411.65
232,1.653209188487381e-16,411.7
233,1.6527407373068856e-16,411.75
234,1.6522727586561815e-16,411.8
235,1.6518052477622406e-16,411.85
236,1.6513382084667683e-16,411.9
237,1.6508716443786398e-16,411.95
238,1.6504055643454197e-16,412.0
239,1.6499399668537082e-16,412.05
240,1.6494748521363365e-16,412.1
241,1.649010232416913e-16,412.15
242,1.6485460916301238e-16,412.2
243,1.6480824537575245e-16,412.25
244,1.647619311930612e-16,412.3
245,1.6471566597465425e-16,412.35
246,1.6466945199063046e-16,412.4
247,1.6462328736670317e-16,412.45
248,1.6457717367447914e-16,412.5
249,1.6453111163573341e-16,412.55
250,1.6448510027257728e-16,412.6
251,1.6443913952680307e-16,412.65
252,1.6439323173835874e-16,412.7
253,1.6434737506788225e-16,412.75
254,1.6430157070280985e-16,412.8
255,1.6425581900402906e-16,412.85
256,1.642101189005189e-16,412.9
257,1.6416447269730271e-16,412.95
258,1.6411887910217048e-16,413.0
259,1.6407333896495403e-16,413.05
260,1.6402785176178443e-16,413.1
261,1.639824191457592e-16,413.15
262,1.6393703997600825e-16,413.2
263,1.6389171498594807e-16,413.25
264,1.6384644506033513e-16,413.3
265,1.6380122903501618e-16,413.35
266,1.6375606860965493e-16,413.4
267,1.637109624920413e-16,413.45
268,1.6366591182304547e-16,413.5
269,1.6362091716146098e-16,413.55
270,1.6357597745954992e-16,413.6
271,1.6353109400952236e-16,413.65
272,1.6348626584513114e-16,413.7
273,1.6344149487558754e-16,413.75
274,1.6339677985524761e-16,413.8
275,1.6335212136618796e-16,413.85
276,1.63307520467788e-16,413.9
277,1.6326297679916024e-16,413.95
278,1.6321848942898214e-16,414.0
279,1.631740594864823e-16,414.05
280,1.63129687611945e-16,414.1
281,1.630853735259734e-16,414.15
282,1.630411171820015e-16,414.2
283,1.6299691940657798e-16,414.25
284,1.6295277922181412e-16,414.3
285,1.6290869732620197e-16,414.35
286,1.6286467557074503e-16,414.4
287,1.6282071123132482e-16,414.45
288,1.6277680643834176e-16,414.5
289,1.627329599694349e-16,414.55
290,1.626891737454571e-16,414.6
291,1.626454473938793e-16,414.65
292,1.6260177902877333e-16,414.7
293,1.6255817122291775e-16,414.75
294,1.6251462441869082e-16,414.8
295,1.624711360782385e-16,414.85
296,1.6242770910030234e-16,414.9
297,1.6238434218103067e-16,414.95
298,1.6234103507595138e-16,415.0
299,1.6317592749065258e-16,415.05
300,1.6315739800250674e-16,415.1
301,1.6313891305255727e-16,415.15
302,1.6312046044233866e-16,415.2
303,1.63102050708564e-16,415.25
304,1.6308366031608104e-16,415.3
305,1.6306529381665159e-16,415.35
306,1.6304695653838259e-16,415.4
307,1.630286620912315e-16,415.45
308,1.6301038700048232e-16,415.5
309,1.6299213743684125e-16,415.55
310,1.6297393019604978e-16,415.6
311,1.6295578630812897e-16,415.65
312,1.629376649430285e-16,415.7
313,1.6291956744076396e-16,415.75
314,1.6290149925032218e-16,415.8
315,1.6288347545705858e-16,415.85
316,1.6286548414455524e-16,415.9
317,1.6284753554984606e-16,415.95
318,1.6282960634931736e-16,416.0
319,1.6281169932720427e-16,416.05
320,1.6279380856559433e-16,416.1
321,1.627759433008739e-16,416.15
322,1.6275812057056157e-16,416.2
323,1.627403609815693e-16,416.25
324,1.62722623945623e-16,416.3
325,1.6270491072718117e-16,416.35
326,1.6268722695657065e-16,416.4
327,1.62669587462248e-16,416.45
328,1.6265198056958526e-16,416.5
329,1.6263441625871155e-16,416.55
330,1.626168713873581e-16,416.6
331,1.625993503108411e-16,416.65
332,1.6258185875016646e-16,416.7
333,1.625644114053285e-16,416.75
334,1.6254699672260647e-16,416.8
335,1.6252790228193151e-16,416.85
336,1.6249528994534568e-16,416.9
337,1.6244181001766159e-16,416.95
338,1.6238517949676664e-16,417.0
339,1.6232861858274398e-16,417.05
340,1.6227213324303201e-16,417.1
341,1.6221574810457353e-16,417.15
342,1.6215936527571825e-16,417.2
343,1.6210297223301653e-16,417.25
344,1.6204665570190743e-16,417.3
345,1.6199046637204557e-16,417.35
346,1.6193433554211718e-16,417.4
347,1.618782691272325e-16,417.45
348,1.6182223862139876e-16,417.5
349,1.617662521700671e-16,417.55
350,1.6171029854197444e-16,417.6
351,1.6165439065028935e-16,417.65
352,1.6159852892284837e-16,417.7
353,1.6154273151219615e-16,417.75
354,1.614869700635063e-16,417.8
355,1.6143125431595252e-16,417.85
356,1.613755847981531e-16,417.9
357,1.6131997953163576e-16,417.95
358,1.6126441026235675e-16,418.0
359,1.6120889179535644e-16,418.05
360,1.61153459737348e-16,418.1
361,1.6109815262172598e-16,418.15
362,1.6104289080361406e-16,418.2
363,1.6098766774737855e-16,418.25
364,1.609324374661691e-16,418.3
365,1.6087719727598285e-16,418.35
366,1.6082203445658093e-16,418.4
367,1.6076699809012317e-16,418.45
368,1.6071202047305512e-16,418.5
369,1.6065710518599389e-16,418.55
370,1.6060221256777063e-16,418.6
371,1.605473470476314e-16,418.65
372,1.604925383904235e-16,418.7
373,1.6043781216927285e-16,418.75
374,1.6038311170025334e-16,418.8
375,1.603297739260306e-16,418.85
376,1.6028688005344642e-16,418.9
377,1.6025960872633702e-16,418.95
378,1.602347556860218e-16,419.0
379,1.6020996827407265e-16,419.05
380,1.6018523055073505e-16,419.1
381,1.6016056538495623e-16,419.15
382,1.6013600397740992e-16,419.2
383,1.6011158859216379e-16,419.25
384,1.6008723519846215e-16,419.3
385,1.6006295083219783e-16,419.35
386,1.6003874331537705e-16,419.4
387,1.6001464323017292e-16,419.45
388,1.599906126133532e-16,419.5
389,1.599666710493632e-16,419.55
390,1.5994280949877028e-16,419.6
391,1.5991905527393613e-16,419.65
392,1.5989537059310501e-16,419.7
393,1.598717748894899e-16,419.75
394,1.5984825930513955e-16,419.8
395,1.5982485094068558e-16,419.85
396,1.5980151219585665e-16,419.9
397,1.5977826411264954e-16,419.95
398,1.5975510986524614e-16,420.0
399,1.597320827446562e-16,420.05
400,1.5970912835976293e-16,420.1
401,1.5968626456591296e-16,420.15
402,1.5966349473895183e-16,420.2
403,1.5964085190772487e-16,420.25
404,1.5961828188278153e-16,420.3
405,1.595958023782999e-16,420.35
406,1.5957341697179782e-16,420.4
407,1.595511584299451e-16,420.45
408,1.5952897276496587e-16,420.5
409,1.5950687577471535e-16,420.55
410,1.594848593272457e-16,420.6
411,1.594629514538473e-16,420.65
412,1.594411272014951e-16,420.7
413,1.59419413252984e-16,420.75
414,1.5939779668745036e-16,420.8
415,1.593746488024246e-16,420.85
416,1.5933881051050954e-16,420.9
417,1.5928456328192804e-16,420.95
418,1.5922765897720535e-16,421.0
419,1.5917096247843452e-16,421.05
420,1.591143648784955e-16,421.1
421,1.5905787022958732e-16,421.15
422,1.5900141816796125e-16,421.2
423,1.5894502017159648e-16,421.25
424,1.5888873839178384e-16,421.3
425,1.5883262617503517e-16,421.35
426,1.58776620742392e-16,421.4
427,1.5872074331663182e-16,421.45
428,1.5866495292039644e-16,421.5
429,1.586092724446703e-16,421.55
430,1.585536898561156e-16,421.6
431,1.584982333454858e-16,421.65
432,1.5844285013523329e-16,421.7
433,1.583875569511889e-16,421.75
434,1.5833235878281705e-16,421.8
435,1.5827729560088016e-16,421.85
436,1.582223750408787e-16,421.9
437,1.5816763425056688e-16,421.95
438,1.581129342557806e-16,422.0
439,1.5805826852526326e-16,422.05
440,1.5800371678787897e-16,422.1
441,1.5794933392768045e-16,422.15
442,1.5789505829542432e-16,422.2
443,1.5784091016572013e-16,422.25
444,1.5778684944886302e-16,422.3
445,1.5773289098707315e-16,422.35
446,1.576789752638825e-16,422.4
447,1.5762511354544719e-16,422.45
448,1.5757136919351379e-16,422.5
449,1.575177970269443e-16,422.55
450,1.5746436018718112e-16,422.6
451,1.5741108448346128e-16,422.65
452,1.573578604808405e-16,422.7
453,1.5730468497597214e-16,422.75
454,1.572515852340954e-16,422.8
455,1.5719941603968325e-16,422.85
456,1.571536069311668e-16,422.9
457,1.5711672130683087e-16,422.95
458,1.57081210824158e-16,423.0
459,1.5704575063964529e-16,423.05
460,1.570103803937319e-16,423.1
461,1.5697513340151503e-16,423.15
462,1.5693994622524826e-16,423.2
463,1.5690483077953062e-16,423.25
464,1.5686982240016823e-16,423.3
465,1.5683496042652794e-16,423.35
466,1.5680018935018517e-16,423.4
467,1.5676552358739868e-16,423.45
468,1.5673092880593213e-16,423.5
469,1.5669642341516532e-16,423.55
470,1.566620142205336e-16,423.6
471,1.5662773349904363e-16,423.65
472,1.565935549386083e-16,423.7
473,1.5655949922322273e-16,423.75
474,1.5652550346001581e-16,423.8
475,1.5649157558953493e-16,423.85
476,1.5645772706492728e-16,423.9
477,1.564239910325808e-16,423.95
478,1.5639038263091205e-16,424.0
479,1.5635693402338012e-16,424.05
480,1.5632353718764226e-16,424.1
481,1.5629019427096227e-16,424.15
482,1.5625697035041882e-16,424.2
483,1.562239116376652e-16,424.25
484,1.5619094716544296e-16,424.3
485,1.5615808940096733e-16,424.35
486,1.5612531712390474e-16,424.4
487,1.56092651504129e-16,424.45
488,1.5606007142222996e-16,424.5
489,1.560275998231903e-16,424.55
490,1.5599522800322006e-16,424.6
491,1.5596298405090412e-16,424.65
492,1.5593084286517416e-16,424.7
493,1.558988313676229e-16,424.75
494,1.5586693691317834e-16,424.8
495,1.5583186882029682e-16,424.85
496,1.5577182155250576e-16,424.9
497,1.5567771821908916e-16,424.95
498,1.555786466072407e-16,425.0
499,1.554797863114262e-16,425.05
500,1.5538094381928915e-16,425.1
501,1.552821027601434e-16,425.15
502,1.5518341571963453e-16,425.2
503,1.5508495107471924e-16,425.25
504,1.5498658982701257e-16,425.3
505,1.5488833667844743e-16,425.35
506,1.5479018381346254e-16,425.4
507,1.5469215643272746e-16,425.45
508,1.5459421799862909e-16,425.5
509,1.5449638566651095e-16,425.55
510,1.5439863942725743e-16,425.6
511,1.5430099923951184e-16,425.65
512,1.5420344519510694e-16,425.7
513,1.5410600858962887e-16,425.75
514,1.5400874423080536e-16,425.8
515,1.5391169196629725e-16,425.85
516,1.5381467153720663e-16,425.9
517,1.537176721328502e-16,425.95
518,1.53620830769396e-16,426.0
519,1.5352419930874985e-16,426.05
520,1.5342758524799948e-16,426.1
521,1.533309730240446e-16,426.15
522,1.5323451623205127e-16,426.2
523,1.5313827865486061e-16,426.25
524,1.5304213042299166e-16,426.3
525,1.529460725139886e-16,426.35
526,1.5285012705587396e-16,426.4
527,1.5275432373268483e-16,426.45
528,1.5265859828422054e-16,426.5
529,1.5256295923998364e-16,426.55
530,1.5246740391693509e-16,426.6
531,1.5237195414061776e-16,426.65
532,1.5227659101245956e-16,426.7
533,1.5218134496988414e-16,426.75
534,1.520862724360184e-16,426.8
535,1.519921958447952e-16,426.85
536,1.5190403008341152e-16,426.9
537,1.518236594165842e-16,426.95
538,1.517446264258324e-16,427.0
539,1.5166583462819908e-16,427.05
540,1.5158716423397275e-16,427.1
541,1.5150861242638944e-16,427.15
542,1.514301068242946e-16,427.2
543,1.5135166081722049e-16,427.25
544,1.5127338037357856e-16,427.3
545,1.5119532356878388e-16,427.35
546,1.511173999915169e-16,427.4
547,1.510396236143614e-16,427.45
548,1.5096196911026852e-16,427.5
549,1.5088445783209492e-16,427.55
550,1.5080703935902598e-16,427.6
551,1.5072973960778788e-16,427.65
552,1.5065262908331753e-16,427.7
553,1.5057575097047897e-16,427.75
554,1.504989362008728e-16,427.8
555,1.5042217124481338e-16,427.85
556,1.5034549961907207e-16,427.9
557,1.5026896367111996e-16,427.95
558,1.5019260558786142e-16,428.0
559,1.5011646833077497e-16,428.05
560,1.5004045009294994e-16,428.1
561,1.4996454776796022e-16,428.15
562,1.498886771043907e-16,428.2
563,1.4981284905213332e-16,428.25
564,1.4973719972561979e-16,428.3
565,1.4966178784793055e-16,428.35
566,1.4958648329415384e-16,428.4
567,1.495112873272488e-16,428.45
568,1.4943620828337316e-16,428.5
569,1.4936127368495856e-16,428.55
570,1.49286447041737e-16,428.6
571,1.4921175376095944e-16,428.65
572,1.4913722450280025e-16,428.7
573,1.490628883612414e-16,428.75
574,1.4898860987054806e-16,428.8
575,1.4890835789993413e-16,428.85
576,1.487834839291052e-16,428.9
577,1.4860147357077117e-16,428.95
578,1.4841153847204427e-16,429.0
579,1.4822240917982776e-16,429.05
580,1.480336313744082e-16,429.1
581,1.4784523708299254e-16,429.15
582,1.4765749338935106e-16,429.2
583,1.4747057648907818e-16,429.25
584,1.4728417389622798e-16,429.3
585,1.4709833788852129e-16,429.35
586,1.469130067378135e-16,429.4
587,1.467282775585697e-16,429.45
588,1.4654404433166134e-16,429.5
589,1.4636039396647258e-16,429.55
590,1.461772370332433e-16,429.6
591,1.4599466067407992e-16,429.65
592,1.4581256319528847e-16,429.7
593,1.4563104929655155e-16,429.75
594,1.4545017507096513e-16,429.8
595,1.4527004851394684e-16,429.85
596,1.4509028071205127e-16,429.9
597,1.4491090635049916e-16,429.95
598,1.5221403241157532e-16,430.0
599,1.5218896144069732e-16,430.05
600,1.521639361628331e-16,430.1
601,1.521389564848505e-16,430.15
602,1.521140234079212e-16,430.2
603,1.5208913477836177e-16,430.25
